time,Real_h,Imag_h,Amplitude,time_sec,phase_raw,phase_unwrapped,Frequency,Phase
-0.0008198230420286138,0.0008347554611301998,-0.0012251182184703391,0.001482474731357884,-0.03867091602957278,-0.9726853107171719,-0.9726853107171719,1705.982109600863,-146.43614996571566
-0.0008148975591878721,0.0008403999534035702,-0.00121140078051644,0.001474368994762357,-0.03866599054673204,-0.9642825251097192,-0.9642825251097192,1705.114317497937,-146.4277514544033
-0.0008099720763471305,0.0008458314160686029,-0.0011976380432127903,0.0014662086028117483,-0.038661065063891296,-0.9558882880924912,-0.9558882880924912,1703.039476386315,-146.41936316268527
-0.0008050465935063888,0.0008510416803693374,-0.0011838305241832691,0.0014579871918895238,-0.038656139581050554,-0.9475059416736237,-0.9475059416736237,1701.1421944822505,-146.41098421599668
-0.0008001211106656471,0.0008560386351232859,-0.0011699801123316188,0.0014497088011305049,-0.03865121409820981,-0.9391303947153206,-0.9391303947153206,1700.3023271575657,-146.40260940606018
-0.0007951956278249054,0.0008608303658659258,-0.0011560884002103375,0.0014413775729827912,-0.038646288615369076,-0.9307563218006574,-0.9307563218006574,1699.9936454284034,-146.39423611653027
-0.0007902701449841637,0.0008654145979531005,-0.001142156185575147,0.0014329909904105802,-0.038641363132528334,-0.9223838156554748,-0.9223838156554748,1700.7849951334065,-146.38585892922094
-0.0007853446621434219,0.0008698054478960521,-0.0011281799106391056,0.0014245530625284942,-0.03863643764968759,-0.9140019471820138,-0.9140019471820138,1704.6198022971366,-146.37746285363474
-0.0007804191793026802,0.0008740315764754239,-0.0011141562681935867,0.001416077464911851,-0.03863151216684685,-0.905591664483066,-0.905591664483066,1713.150200149481,-146.36902476172028
-0.0007754936964619386,0.0008781364082640008,-0.0011000823308113612,0.0014075882516141418,-0.038626586684006106,-0.8971257633531122,-0.8971257633531122,1728.2459354969178,-146.36051231602042
-0.0007705682136211969,0.0008821806311213537,-0.0010859538096534536,0.0013991205604330598,-0.038621661201165364,-0.8885667730833202,-0.8885667730833202,1750.7517480675742,-146.35188901832691
-0.0007656427307804552,0.0008862220934832575,-0.001071767329722634,0.0013907101811803323,-0.03861673571832462,-0.8798791679660988,-0.8798791679660988,1779.3088359931571,-146.34312506318685
-0.0007607172479397135,0.0008903006001727682,-0.0010575225581084273,0.0013823853006944855,-0.03861181023548388,-0.8710388628031887,-0.8710388628031887,1810.5776796414284,-146.33420709389395
-0.0007557917650989718,0.0008944209118581193,-0.0010432232703718747,0.001374155580498256,-0.038606884752643136,-0.8620432293802885,-0.8620432293802885,1840.9611588680127,-146.32513947129547
-0.0007508662822582301,0.0008985617124895279,-0.0010288720017213506,0.0013660127184906485,-0.0386019592698024,-0.8529036176062461,-0.8529036176062461,1869.586060816524,-146.31593085723364
-0.0007459407994174884,0.000902707111168196,-0.001014466308574872,0.0013579477235104293,-0.03859703378696166,-0.8436260012566152,-0.8436260012566152,1897.0379996181146,-146.30658702911828
-0.0007410153165767467,0.0009068440024516259,-0.001000006252103076,0.001349955017408997,-0.038592108304120916,-0.8342159613755352,-0.8342159613755352,1922.1766916874476,-146.2971193808065
-0.000736089833736005,0.0009109365370480357,-0.000985490340240483,0.0013420121404951486,-0.03858718282128017,-0.8246907046330519,-0.8246907046330519,1942.131013960694,-146.28755344782277
-0.0007311643508952633,0.0009149118857891565,-0.0009709107387190451,0.0013340657484990132,-0.03858225733843943,-0.815084095408061,-0.815084095408061,1950.8469455601153,-146.2779445846675
-0.0007262388680545216,0.0009186341869686019,-0.0009562777540850968,0.0013260301325480886,-0.03857733185559869,-0.8054729783225096,-0.8054729783225096,1939.2449803388445,-146.26839286679282
-0.0007213133852137799,0.0009219010502563747,-0.0009416225176493805,0.001317783939880952,-0.038572406372757946,-0.7959806596587511,-0.7959806596587511,1901.216739822863,-146.2590284563643
-0.0007163879023730382,0.0009244990313495511,-0.0009269911276254722,0.0013092024326522627,-0.038567480889917204,-0.78674415746545,-0.78674415746545,1839.2288861997367,-146.24996936604512
-0.0007114624195322965,0.0009262863391369619,-0.0009124300901829171,0.001300205772769434,-0.03856255540707646,-0.7778624790204018,-0.7778624790204018,1765.3477464464377,-146.24127417601207
-0.0007065369366915548,0.0009272639079095664,-0.0008979765326244188,0.0012908060303763284,-0.038557629924235726,-0.7693537773993311,-0.7693537773993311,1698.9502133905626,-146.23290602588875
-0.0007016114538508133,0.0009276021956516231,-0.0008836313282296976,0.0012811128590435317,-0.03855270444139498,-0.761126178773752,-0.761126178773752,1660.2885289305268,-146.22472830154177
-0.0006966859689778479,0.0009276013221822312,-0.0008693597010296061,0.0012713105453383566,-0.03854777895652201,-0.7529983287465446,-0.7529983287465446,1662.8893821028178,-146.21653776335694
-0.0006917604820748464,0.0009276211578648717,-0.0008551078167245157,0.0012616221267645607,-0.03854285346961901,-0.7447451023524232,-0.7447451023524232,1710.1765866899077,-146.20811430924468
-0.0006868349931454916,0.0009279955853000617,-0.000840816846144184,0.0012522574715673517,-0.03853792798068966,-0.736151420381947,-0.736151420381947,1794.253315000169,-146.19927673258775
-0.0006819095021902901,0.0009289444041773105,-0.0008264397100587571,0.0012433584762305443,-0.03853300248973446,-0.7270699488379356,-0.7270699488379356,1897.7972912708647,-146.18992914726854
-0.0006769840092051203,0.0009305294632459792,-0.0008119589638638477,0.0012349746721968444,-0.03852807699674929,-0.7174562495242076,-0.7174562495242076,1999.990236880505,-146.18007820735087
-0.0006720585141844425,0.0009326649498543002,-0.0007973936595069636,0.0012270699070992784,-0.03852315150172861,-0.707368068806527,-0.707368068806527,2082.413402840786,-146.16982129033278
-0.0006671330189991285,0.0009351505153853334,-0.0007827911210193907,0.0012195361518102892,-0.038518226006543296,-0.6969424154767161,-0.6969424154767161,2132.596342831588,-146.1593171971383
-0.0006622075236490879,0.0009377239744028947,-0.0007682160348880231,0.0012122219798490032,-0.038513300511193255,-0.686359882412316,-0.686359882412316,2146.305666067201,-146.14874557838345
-0.0006572820281342354,0.0009401248175095136,-0.0007537328299208254,0.0012049679877066248,-0.0385083750156784,-0.6757991779677445,-0.6757991779677445,2129.463071314589,-146.13825691740107
-0.0006523565324544894,0.0009421373884461537,-0.0007393572603877318,0.0011976109623730868,-0.03850344951999866,-0.6653825604523993,-0.6653825604523993,2095.0292824311473,-146.1279378595487
-0.0006474310366097493,0.0009436173125991452,-0.0007250569017216254,0.001190008883736166,-0.038498524024153914,-0.6551610622695011,-0.6551610622695011,2055.6934937175974,-146.11781254961764
-0.0006425055405999237,0.0009444913873759539,-0.000710778219054492,0.001182061613245955,-0.03849359852814409,-0.6451319405967435,-0.6451319405967435,2021.8034368798399,-146.10785416468966
-0.0006375800444249146,0.0009447438563661826,-0.0006964442313466899,0.001173701632237822,-0.03848867303196908,-0.6352442924182736,-0.6352442924182736,2000.991617103442,-146.097998287968
-0.0006326545480846179,0.000944414274649536,-0.0006819837849705629,0.001164912101887771,-0.03848374753562878,-0.6254201871556022,-0.6254201871556022,1992.9682253602296,-146.08818193010288
-0.0006277290515789403,0.000943594691887348,-0.0006674088676744584,0.0011557705391679102,-0.03847882203912311,-0.6156115766885231,-0.6156115766885231,1993.3184260494309,-146.07836384699573
-0.0006228035549077599,0.0009424017580121576,-0.0006527657262029854,0.0011463961648617445,-0.038473896542451924,-0.6057840209406454,-0.6057840209406454,2000.2430728649924,-146.06851165623308
-0.0006178780580709255,0.0009409548800357632,-0.0006381039765925271,0.0011369137043796744,-0.03846897104561509,-0.5959071951616158,-0.5959071951616158,2011.6215445645503,-146.05860342051176
-0.0006129525610683732,0.0009393565386780343,-0.0006234801700844092,0.0011274387917956615,-0.03846404554861254,-0.5859675494958533,-0.5859675494958533,2025.1840350914863,-146.04862838244935
-0.0006080270638999598,0.0009376737673822333,-0.0006089304193124955,0.0011180466670049518,-0.038459120051444126,-0.5759571190344116,-0.5759571190344116,2041.5822875166996,-146.03857257450366
-0.000603101566565571,0.0009359355196590109,-0.0005944476428695788,0.0011087575465684918,-0.03845419455410974,-0.5658559336014578,-0.5658559336014578,2060.5829859076694,-146.02842317832815
-0.0005981760690650746,0.00093413565277968,-0.0005800213420080587,0.0010995609009868204,-0.03844926905660924,-0.5556583266801275,-0.5556583266801275,2077.84866298033,-146.01818873975952
-0.0005932505713983441,0.0009322441555541784,-0.0005656634996518105,0.0010904376921233312,-0.03844434355894251,-0.5453870564617129,-0.5453870564617129,2087.9707885104144,-146.00790444433886
-0.0005883250735652629,0.0009302334123313017,-0.0005514186997364332,0.0010813865099198142,-0.03843941806110943,-0.5350897358379045,-0.5350897358379045,2086.080067454939,-145.99762946131332
-0.0005833995755656847,0.0009281067660625128,-0.0005373761728325195,0.0010724529455128284,-0.03843449256310985,-0.5248370904121334,-0.5248370904121334,2069.0565246909173,-145.98743832736756
-0.00057847407739948,0.0009259097078773094,-0.0005236532621721512,0.0010637300062163238,-0.038429567064943645,-0.5147074679505385,-0.5147074679505385,2040.9618232959474,-145.9773855734794
-0.0005735485790664848,0.0009237254190759144,-0.0005103233442396212,0.001055319177084774,-0.03842464156661065,-0.5047315826410474,-0.5047315826410474,2011.5317692863318,-145.96747777693514
-0.0005686230805665678,0.0009216450332653727,-0.0004974010072076122,0.0010473000187691572,-0.03841971606811073,-0.4948918748666088,-0.4948918748666088,1989.1831338338525,-145.95768005822717
-0.0005636975818995432,0.0009197186405117363,-0.0004848357776385861,0.001039686543619359,-0.03841479056944371,-0.48513614522797827,-0.48513614522797827,1980.2105505570798,-145.94792653363436
-0.0005587720830652374,0.0009179360045109117,-0.00047251564743219446,0.001032413456637273,-0.0384098650706094,-0.47538482568111295,-0.47538482568111295,1988.1856201775008,-145.93813372751328
-0.0005538465840634441,0.0009162315021679306,-0.0004602972279328308,0.0010253554035589568,-0.038404939571607614,-0.4655505329830288,-0.4655505329830288,2017.7286121662692,-145.928195407079
-0.0005489210848939475,0.0009144878046164504,-0.00044797715545364736,0.001018317964390571,-0.038400014072438114,-0.45550818480542443,-0.45550818480542443,2078.4053657788827,-145.91795822300142
-0.0005439955855565076,0.0009125458138475121,-0.0004352812987218196,0.0010110438523563516,-0.03839508857310067,-0.44507616481463325,-0.44507616481463325,2173.1222960848827,-145.90725451038915
-0.000539070086050876,0.0009102353560172296,-0.00042197936659517767,0.0010032920757067107,-0.038390163073595045,-0.43410075956228944,-0.43410075956228944,2286.713565153281,-145.89599130366184
-0.0005341445863767862,0.0009073827357899987,-0.0004079903829642791,0.000994886718074516,-0.038385237573920955,-0.422549751340374,-0.422549751340374,2393.99599012165,-145.88419967699073
-0.0005292190865339435,0.0009037880780744387,-0.0003933706957092189,0.0009856842264702437,-0.03838031207407811,-0.41051750620357313,-0.41051750620357313,2461.7629737210227,-145.87207426364242
-0.0005242935865220153,0.0008992460899853449,-0.0003783933200566747,0.0009756152084799848,-0.03837538657406618,-0.3982989246373632,-0.3982989246373632,2453.865110899489,-145.85998775080162
-0.0005193680863407172,0.0008936049320686721,-0.0003635078783871524,0.0009647112273976006,-0.038370461073884886,-0.3863444805310351,-0.3863444805310351,2355.8328510966458,-145.84838409546654
-0.0005144425859897055,0.0008868124022502944,-0.0003491667653579279,0.0009530758977203528,-0.03836553557353387,-0.37509161399135454,-0.37509161399135454,2184.3764469727976,-145.8376249483245
-0.0005095170854686641,0.0008789202504732099,-0.0003356797517413273,0.0009408409549020542,-0.03836061007301283,-0.36482618628109087,-0.36482618628109087,1974.1104084485705,-145.82790146631092
-0.0005045915847772404,0.0008700038887753202,-0.00032315297987074525,0.0009280811467126794,-0.03835568457232141,-0.3556446500016791,-0.3556446500016791,1762.4313179374003,-145.81922060948546
-0.0004996660839151399,0.0008601660595326618,-0.0003115158218983716,0.0009148375578565654,-0.03835075907145931,-0.34746447266481684,-0.34746447266481684,1581.4876713182457,-145.81143099046173
-0.0004947405828820287,0.0008495763180167107,-0.00030058900207932334,0.0009011845916935523,-0.038345833570426195,-0.34006541198139045,-0.34006541198139045,1446.7000177994269,-145.80430526790553
-0.0004898150816775968,0.0008383651237547357,-0.0002901739521580877,0.0008871623319547204,-0.03834090806922177,-0.333213027571437,-0.333213027571437,1354.1395451814315,-145.7976354518286
-0.0004848895803015649,0.0008266131583794084,-0.00028011488895100356,0.0008727850048081795,-0.03833598256784573,-0.3267257798402243,-0.3267257798402243,1300.106391426958,-145.7912317758969
-0.00047996407875365685,0.0008145364314566755,-0.00027029551884194807,0.0008582128323884545,-0.03833105706629782,-0.32040567571388423,-0.32040567571388423,1289.5979394577917,-145.78487985913893
-0.0004750385770336092,0.0008023924053937644,-0.00026059128589369247,0.0008436476696567824,-0.03832613156457778,-0.3140219463220559,-0.3140219463220559,1331.2801578084109,-145.77832263631703
-0.00047011307514116584,0.0007903906723076456,-0.00025082524039767484,0.0008292350186114208,-0.03832120606268533,-0.30729123005793135,-0.30729123005793135,1439.1864029748976,-145.77123392084138
-0.0004651875730760957,0.0007787200727334495,-0.000240753688232946,0.0008150872898504524,-0.03831628056062026,-0.2998445153456473,-0.2998445153456473,1624.5183591886598,-145.76323235216802
-0.00046026207083815025,0.0007675507430054829,-0.00023012408899929327,0.0008013059586862083,-0.03831135505838232,-0.2912880926722908,-0.2912880926722908,1881.2856313626762,-145.75396607541768
-0.00045533656842706185,0.00075701054359467,-0.0002187573544345826,0.0007879846084998839,-0.03830642955597123,-0.2813119617950345,-0.2813119617950345,2185.4668899501994,-145.74320155279239
-0.0004504110658425686,0.0007471964558113206,-0.00020659888211424168,0.0007752326371276259,-0.03830150405338673,-0.2697590473661916,-0.2697590473661916,2489.4715790986957,-145.7309396538793
-0.0004454855630843745,0.0007382380717554959,-0.0001938504923414477,0.0007632650024534692,-0.03829657855062854,-0.2567881639188552,-0.2567881639188552,2730.5971273592368,-145.7174900899594
-0.000440560060152174,0.0007302624312515689,-0.0001809225343597081,0.0007523404694263045,-0.03829165304769634,-0.24285991949258962,-0.24285991949258962,2866.9981573843143,-145.7033686818786
-0.0004356345570455897,0.0007232959004349318,-0.00016824548537047035,0.0007426058866811681,-0.038286727544589755,-0.22854534774359667,-0.22854534774359667,2889.803511846454,-145.68913494545097
-0.00043070905376417013,0.0007172016004852105,-0.00015616259525286417,0.0007340060571239569,-0.038281802041308335,-0.21439244664304546,-0.21439244664304546,2813.0165928492206,-145.67527942274563
-0.0004257835503074542,0.0007116345234462854,-0.00014487367926674415,0.000726231421727885,-0.03827687653785162,-0.20083430235411776,-0.20083430235411776,2679.430248735014,-145.66208187955792
-0.0004208580466749174,0.0007060423583666291,-0.0001343202681530745,0.0007187056047121278,-0.038271951034219084,-0.1879973602933468,-0.1879973602933468,2541.081115157416,-145.64956577507044
-0.0004159325428659161,0.0006998334893336163,-0.00012431555347988164,0.0007107891878960133,-0.03826702553041008,-0.1758020934021385,-0.1758020934021385,2421.702318464093,-145.63763767086215
-0.00041100703887981166,0.0006925558559271867,-0.00011470894601556549,0.0007019912790591065,-0.03826210002642398,-0.1641411518959493,-0.1641411518959493,2316.6743393363286,-145.6262268819632
-0.0004060815347158281,0.0006839525897951705,-0.0001054553648724412,0.000692034666088268,-0.03825717452226,-0.1529805156223168,-0.1529805156223168,2210.979502948894,-145.61533669301747
-0.0004011560303732185,0.0006739298656402834,-9.659460845153296e-05,0.0006808171429861585,-0.038252249017917385,-0.14236077402410546,-0.14236077402410546,2103.762671756238,-145.60497460065312
-0.00039623052585115404,0.0006625074646165899,-8.813528646800236e-05,0.0006683441997904216,-0.03824732351339532,-0.13225633091244152,-0.13225633091244152,2025.7492705118784,-145.59499676327806
-0.00039130502114881045,0.0006496834332469244,-7.992413241547155e-05,0.0006545811106179866,-0.03824239800869298,-0.1224050992832304,-0.1224050992832304,2020.5173318610432,-145.58504469547583
-0.0003863795162653343,0.0006353657343086059,-7.168662300039958e-05,0.0006393970505489647,-0.0382374725038095,-0.11235219530055336,-0.11235219530055336,2113.3440165354477,-145.57463540900966
-0.0003814540111999238,0.0006193854155127096,-6.313855528210948e-05,0.0006225951895999229,-0.038232546998744094,-0.10158652632459156,-0.10158652632459156,2301.7897166674793,-145.56329793189036
-0.0003765285059517467,0.0006015159196978252,-5.4087356210738266e-05,0.0006039427487368218,-0.038227621493495914,-0.08967724101951402,-0.08967724101951402,2546.1122487203484,-145.55075704241324
-0.0003716030005200596,0.0005815393052278432,-4.4577521953738365e-05,0.0005832453334476141,-0.03822269598806423,-0.07650474732325006,-0.07650474732325006,2774.839978711796,-145.53708955277045
-0.00036667749490416576,0.0005593295695250441,-3.4915115324800755e-05,0.0005604182657829911,-0.038217770482448336,-0.06234226169693948,-0.06234226169693948,2922.2212969230613,-145.52269613509148
-0.00036175198910341907,0.0005348849947989588,-2.554298514594651e-05,0.0005354945394224373,-0.038212844976647585,-0.04771791194796764,-0.04771791194796764,2956.279378552642,-145.5081349635897
-0.0003568264831172449,0.0005083248489824038,-1.689272467462268e-05,0.0005086054622592213,-0.03820791947066141,-0.033219918698134294,-0.033219918698134294,2882.5844426075955,-145.49393677639398
-0.0003519009769451237,0.00047987482377174974,-9.273073416388109e-06,0.0004799644115771018,-0.03820299396448929,-0.019321537579169403,-0.019321537579169403,2738.2658999602586,-145.48044943054762
-0.0003469754705866119,0.0004498632117745724,-2.8095344196344272e-06,0.0004498719848932459,-0.03819806845813078,-0.00624522703652578,-0.00624522703652578,2585.2427048899326,-145.4677158009249
-0.0003420499640412828,0.0004186778872301553,2.573110147301716e-06,0.00041868579406439954,-0.03819314295158545,0.006145721640272405,0.006145721640272405,2507.1676959606298,-145.45536672979355
-0.0003371244573087658,0.0003867024724941768,7.136597987690437e-06,0.000386768319881486,-0.038188217444852936,0.018452915222976776,0.018452915222976776,2606.6892403196216,-145.44252746414628
-0.00033219895038864205,0.000354295671630363,1.1279003066978617e-05,0.0003544751597026157,-0.03818329193793281,0.03182425297538361,0.03182425297538361,3001.6957253177625,-145.42774259079695
-0.0003272734432805194,0.0003217538846860508,1.5463366971227166e-05,0.00032212525208162633,-0.03817836643082469,0.04802266202952002,0.04802266202952002,3823.3735968554975,-145.40891053660826
-0.0003223479359838795,0.00028922638556661505,2.013027865800899e-05,0.00028992607717619564,-0.03817344092352805,0.06948836155438447,0.06948836155438447,5220.356564303767,-145.38319763176622
-0.0003174224284981702,0.0002566530580531261,2.5608231974982703e-05,0.00025792745831513527,-0.03816851541604234,0.09944847203966677,0.09944847203966677,7380.087593733831,-145.3468469543778
-0.0003124969208226915,0.00022374599603286127,3.203053488173866e-05,0.0002260270468451673,-0.03816358990836686,0.14218971682360274,0.14218971682360274,10589.812884667967,-145.29468674872314
